# Rényi α=10.0 (n=9.0) RS entropy density for the sign channel under q₀=0 ansatz
# See §4.3 of notes/notes_hiddenmanifold.typ (eq:sign-renyi-main)
gamma,q1,q1hat,Phi_n,S_prior,s_out,s_prior,s
0.05,0.029410689053653856,0.023959816115505413,-5.508734845810851,-0.01691737885811903,0.612081649534539,0.03759417524026451,0.6496758247748036
0.1,0.05517352530233681,0.039019710685686035,-5.007933058067445,-0.053807820776389625,0.5564370064519383,0.059786467529321805,0.6162234739812601
0.15,0.07837226473089828,0.04986470310405586,-4.632183001188993,-0.1003772303009064,0.5146870001321103,0.07435350392659734,0.5890405040587077
0.2,0.09961890036988658,0.05833731989720563,-4.334586478989222,-0.1521937026090956,0.4816207198876914,0.08455205700505311,0.5661727768927445
0.25,0.11930353761790427,0.06532425628120309,-4.090112893147177,-0.20701522266383454,0.4544569881274641,0.0920067656283709,0.546463753755835
0.3,0.1376950065617673,0.07131054010581744,-3.883902277222965,-0.26358650210190365,0.4315446974692183,0.09762463040811248,0.5291693278773308
0.35,0.15498897402067618,0.07658626751803023,-3.70644857924776,-0.32115431633148045,0.41182761991641775,0.10195375121634301,0.5137813711327608
0.4,0.17133374988144268,0.08133679997322998,-3.5513235196111967,-0.37924376835447476,0.39459150217902184,0.10534549120957631,0.49993699338859815
0.45,0.18684532536257029,0.08568677403270086,-3.413989131501879,-0.4375444172833444,0.379332125722431,0.1080356585884801,0.4873677843109111
0.5,0.20161670567972168,0.08972346779199372,-3.291130015105263,-0.4958478938511396,0.3656811127894737,0.1101884208558088,0.4758695336452825
0.55,0.2157239961003559,0.0935100564826238,-3.1802550175977307,-0.5540116951884015,0.35336166862197005,0.11192155458351546,0.46528322320548554
0.6,0.2292305331658029,0.09709354545232736,-3.0794480099657457,-0.6119371761167883,0.342160889996194,0.11332169928088674,0.45548258927708074
0.65,0.24218978346133563,0.10050973229546264,-2.9872056721961444,-0.6695556515346358,0.33191174135512713,0.11445395752728817,0.4463656988824153
0.7,0.25464743509408794,0.10378642773347609,-2.9023283439911856,-0.726819337662396,0.3224809271101317,0.11536814883530096,0.43784907594543265
0.75,0.2666429430163292,0.10694561330643981,-2.823844468661443,-0.7836952869005664,0.3137604965179381,0.11610300546675058,0.42986350198468865
0.8,0.27821069449705915,0.11000492751004054,-2.750956993294595,-0.8401612330199401,0.3056618881438439,0.11668906014165834,0.42235094828550224
0.85,0.2893809039999493,0.11297871327509362,-2.6830045222025096,-0.8962026884288792,0.2981116135780566,0.11715067822599728,0.4152622918040539
0.9,0.3001803112148941,0.1158787722769414,-2.61943262689704,-0.9518108813933625,0.29104806965522667,0.11750751622140278,0.40855558587662943
0.95,0.3106327332112923,0.11871491839146342,-2.5597722994077614,-1.0069812683222419,0.28441914437864013,0.11777558693827392,0.4021947313169141
1.0,0.3207595066925476,0.1214953904170366,-2.503623526311443,-1.0617124469243118,0.2781803918123826,0.11796804965825686,0.39614844147063943
1.1,0.34011113738624676,0.12691619417485844,-2.400532175392576,-1.169862663072458,0.2667257972658418,0.11816794576489474,0.38489374303073653
1.2,0.3583683838660102,0.1321857972046775,-2.307919868277173,-1.2762872988826344,0.2564355409196859,0.11817474989654023,0.3746102908162261
1.3,0.37564200076117427,0.13733752570647562,-2.2240737577783705,-1.3810279449088751,0.24711930641981894,0.11803657648793804,0.36515588290775697
1.4,0.39202540177543665,0.14239686546915115,-2.147656310628811,-1.4841343825504922,0.2386284789587568,0.11778844305956288,0.35641692201831965
1.5,0.4075983281082386,0.14738370097843517,-2.077604644778437,-1.58566009591788,0.23084496053093742,0.11745630340132444,0.34830126393226185
1.6,0.42242955919543435,0.15231381711594957,-2.0130612357875073,-1.6856596091282752,0.22367347064305637,0.11705969507835244,0.3407331657214088
1.7,0.43657895767242116,0.15719993481796726,-1.9533250051309925,-1.7841869106613328,0.2170361116812214,0.11661352357263614,0.33364963525385755
1.8,0.45009904016176966,0.162052442683162,-1.8978160314543144,-1.8812945374991603,0.21086844793936826,0.11612929243821977,0.32699774037758805
1.9,0.4630362031349942,0.16687992488506317,-1.8460495952741154,-1.9770330651958736,0.20511662169712394,0.1156159687249049,0.32073259042202884
2.0,0.47543169313785605,0.17168954932676528,-1.7976167594558048,-2.071450849632256,0.19973519549508942,0.11508060275734756,0.314815798252437
2.1,0.4873223843905097,0.17648735786192754,-1.7521696161157945,-2.164593925076794,0.19468551290175495,0.11452877910459225,0.3092142920063472
2.2,0.4987414090693609,0.18127848658095802,-1.709409923706844,-2.2565059986780014,0.18993443596742712,0.11396494942818189,0.303899385395609
2.3,0.5097186734098054,0.18606733530252997,-1.6690802459460365,-2.3472285034365816,0.18545336066067072,0.11339268132543873,0.2988460419861094
2.4,0.5202812842335565,0.19085769959937615,-1.6309569634018768,-2.4368006853724102,0.18121744037798632,0.112814846545019,0.2940322869230053
2.5,0.5304539044280359,0.19565287480186366,-1.594844704982622,-2.5252597093369156,0.17720496722029133,0.11223376485941847,0.2894387320797098
2.6,0.5402590515047043,0.20045573877389986,-1.5605718688011803,-2.6126407735221133,0.17339687431124226,0.11165131510778262,0.2850481894190249
2.7,0.5497173501284833,0.20526881841740557,-1.5279869879364285,-2.6989772263122496,0.1697763319929365,0.11106902165894031,0.2808453536518768
2.8,0.5588477471165451,0.21009434357296447,-1.496955758014059,-2.784300681570033,0.16632841755711766,0.11048812228452512,0.2768165398416428
2.9,0.5676676955839455,0.2149342910547707,-1.4673585880327866,-2.8686411298872425,0.16303984311475406,0.10990962183476026,0.27294946494951433
3.0,0.5761933135552474,0.21979042089880907,-1.4390885683736698,-2.952027044504179,0.15989872981929665,0.10933433498163626,0.2692330648009329
3.1,0.5844395212874107,0.22466430640554913,-1.4120497741238398,-3.0344854811149737,0.1568944193470933,0.10876292047007073,0.26565733981716405
3.2,0.5924201607429036,0.22955735920350429,-1.3861558398744127,-3.1160421713365447,0.15401731554160142,0.10819590872696336,0.26221322426856475
3.3,0.6001480999989682,0.23447085028270093,-1.3613287558603993,-3.1967216097871805,0.15125875065115546,0.1076337242352586,0.2588924748864141
3.4,0.6076353248855575,0.23940592774996233,-1.3374978457025761,-3.276547135023033,0.14861087174473067,0.10707670375892266,0.25568757550365334
3.5,0.6148930197267233,0.24436363189255925,-1.3145988940940319,-3.3555410045303273,0.14606654378822576,0.10652511125493103,0.2525916550431568
3.6,0.6219316387512634,0.24934490802480055,-1.2925733989654555,-3.4337244641644666,0.14361926655171728,0.10597915012853293,0.2495984166802502
3.7,0.6287609694718426,0.2543506175198471,-1.2713679275611003,-3.511117812386738,0.14126310306234446,0.10543897334494708,0.24670207640729153
3.8,0.6353901891209461,0.2593815471821913,-1.2509335596974303,-3.5877404596536886,0.13899261774415891,0.10490469180273945,0.24389730954689837
3.9,0.6418279150618267,0.26443841758299313,-1.2312254045157665,-3.663610983328317,0.13680282272397404,0.10437638129140503,0.24117920401537907
4.0,0.6480822499513396,0.2695218900620303,-1.2122021794705298,-3.738747178469363,0.13468913105228109,0.10385408829081563,0.23854321934309672
4.1,0.6541608223130579,0.27463257293763016,-1.193825842251653,-3.8131661048135355,0.1326473158057392,0.10333783481879501,0.23598515062453423
4.2,0.6600708230854766,0.27977102691301226,-1.176061267905544,-3.886884130281306,0.13067347421172712,0.10282762249421443,0.23350109670594155
4.3,0.6658190386247986,0.28493776981608143,-1.1588759647122089,-3.9599169712575986,0.12876399607913433,0.10232343594980876,0.2310874320289431
4.4,0.671411880580292,0.2901332807705015,-1.1422398234016524,-4.032279729949274,0.12691553593351693,0.10182524570578975,0.22874078163930667
4.5,0.6768554129980779,0.2953580038758866,-1.126124895164691,-4.103986929034079,0.12512498835163233,0.10133301059343405,0.22645799894506638
4.6,0.6821553769649644,0.30061235146539583,-1.1105051946072941,-4.17505254384058,0.12338946606747712,0.10084667980291255,0.22423614587038967
4.7,0.6873172130447702,0.30589670702335753,-1.0953565244354402,-4.245490032026677,0.12170628049282668,0.10036619461055972,0.2220724751033864
4.8,0.6923460818596971,0.31121142762692944,-1.0806563187478313,-4.31531236255958,0.12007292430531459,0.09989148987406436,0.21996441417937895
4.9,0.6972468826678805,0.3165568465025339,-1.066383503600473,-4.38453203928667,0.1184870559556081,0.09942249522191995,0.21790955117752805
5.0,0.7020242707115505,0.32193327481901535,-1.052518371067872,-4.453161127431688,0.11694648567420801,0.09895913616514862,0.21590562183935663
5.1,0.7066826728967787,0.32734100365670615,-1.0390424668006646,-4.521211274929197,0.11544916297785163,0.09850133496577772,0.21395049794362936
5.2,0.7112263023296026,0.3327803056432112,-1.0259384884434708,-4.588693734055059,0.11399316538260787,0.09804901141143287,0.21204217679404075
5.3,0.7156591715760421,0.33825143642146827,-1.0131901943502946,-4.655619379789426,0.11257668826114384,0.0976020834337406,0.21017877169488444
5.4,0.7199851050939461,0.3437546360133424,-1.0007823204874968,-4.721998730032457,0.11119803560972187,0.09716046769614109,0.20835850330586297
5.5,0.7242077505238915,0.3492901300268698,-0.9887005057211239,-4.7878419616880326,0.10985561174679154,0.09672408003410167,0.2065796917808932
5.6,0.7283305892438834,0.354858130777297,-0.9769312237110688,-4.8531589274372635,0.10854791374567431,0.09629283586185047,0.2048407496075248
5.7,0.7323569460204449,0.3604588382095443,-0.9654617213617948,-4.917959169519767,0.10727352459575497,0.09586665047796816,0.20314017507372312
5.8,0.7362899981607725,0.3660924409097883,-0.9542799622118951,-4.982251935901736,0.1060311069124328,0.09544543938509074,0.20147654629752354
5.9,0.7401327838360195,0.3717591168903513,-0.9433745753020856,-5.046046192713812,0.10481939725578729,0.09502911850685145,0.19984851576263873
6.0,0.7438882098244364,0.377459034276561,-0.9327348084576637,-5.109350635977277,0.10363720093974041,0.09461760436994958,0.19825480530968997
6.1,0.7475590588621006,0.38319235210940744,-0.9223504851464459,-5.1721737050677,0.10248338723849398,0.0942108142999581,0.19669420153845207
6.2,0.7511479963377842,0.3889592209044911,-0.9122119653889992,-5.2345235928362195,0.10135688504322213,0.0938086665382835,0.19516555158150561
6.3,0.7546575766267725,0.39475978327076966,-0.9023101096468288,-5.2964082566617305,0.10025667884964765,0.09341108036440443,0.19366775921405208
6.4,0.7580902489134168,0.40059417434699873,-0.892636245904109,-5.357835427278124,0.09918180510045654,0.09301797616802297,0.19219978126847953
6.5,0.761448362780824,0.40646252242170017,-0.8831821389722173,-5.418812619729623,0.09813134877469082,0.09262927555093373,0.19076062432562454
6.6,0.7647341732988874,0.41236494929694967,-0.8739399626119917,-5.479347141224283,0.0971044402902213,0.09224490136741217,0.18934934165763348
6.7,0.7679498458707341,0.4183015707467217,-0.8649022735952737,-5.539446100027664,0.09610025262169708,0.09186477777823655,0.18796503039993362
6.8,0.7710974606938847,0.42427249680054313,-0.8560619879820764,-5.5991164123681045,0.09511799866467516,0.09148883026745269,0.18660682893212785
6.9,0.7741790170764982,0.43027783223466476,-0.8474123588235877,-5.658364811441273,0.09415692875817641,0.09111698569148588,0.1852739144496623
7.0,0.7771964373636189,0.4363176768077154,-0.8389469558783552,-5.717197853576791,0.09321632843092836,0.09074917227899669,0.18396550070992507
7.1,0.7801515707008185,0.44239212561024804,-0.8306596466122332,-5.775621925493771,0.09229551629024814,0.09038531964778984,0.18268083593803797
7.2,0.7830461965010515,0.44850126924618994,-0.8225445787781781,-5.83364324975823,0.09139384208646423,0.09002535879256528,0.18141920087902952
7.3,0.7858820278220581,0.4546451942293317,-0.8145961639223388,-5.891267892238801,0.09051068488025987,0.08966922210409134,0.1801799069843512
7.4,0.7886607144395661,0.4608239831384017,-0.806809062354221,-5.948501767052824,0.08964545137269123,0.08931684334914149,0.17896229472183273
7.5,0.7913838457939971,0.46703771485865553,-0.7991781690248327,-6.005350642258916,0.08879757433609253,0.08896815766309506,0.1777657319991876
7.6,0.794052953773942,0.4732864648195012,-0.7916986003641318,-6.061820145371466,0.0879665111515702,0.08862310154051851,0.17658961269208873
7.7,0.7966695152865952,0.479570305083704,-0.7843656821708586,-6.117915767401742,0.08715174246342873,0.08828161280521994,0.17543335526864867
7.8,0.7992349547930495,0.4858893046778997,-0.7771749380144476,-6.173642868988794,0.08635277089049417,0.08794363061237598,0.17429640150287015
7.9,0.801750646601789,0.4922435296659561,-0.7701220786905427,-6.2290066840623695,0.08556911985450474,0.08760909541578578,0.17317821527029054
8.0,0.8042179170871185,0.49863304332923236,-0.7632029922290082,-6.284012324381758,0.0848003324698898,0.08727794894974664,0.17207828141963644
8.1,0.8066380467898955,0.5050579063423764,-0.7564137345433252,-6.33866478391076,0.08404597050481391,0.08695013421002415,0.17099610471483806
8.2,0.8090122723557962,0.5115181768024737,-0.7497505208194551,-6.39296894183746,0.0833056134243839,0.08662559541785177,0.16993120884223567
8.3,0.8113417884707487,0.5180139105165897,-0.7432097171714345,-6.446929567702023,0.08257885746349272,0.08630427801475264,0.16888313547824535
8.4,0.8136277495997013,0.5245451610199914,-0.7367878330849139,-6.500551324120614,0.08186531478721265,0.08598612862593404,0.16785144341314667
8.5,0.8158712716831589,0.5311119797156734,-0.7304815141950445,-6.553838770458488,0.08116461268833827,0.08567109503867304,0.1668357077270113
8.6,0.8180734337469433,0.5377144160081475,-0.7242875355050806,-6.606796366348945,0.08047639283389785,0.08535912618021894,0.1658355190141168
8.7,0.8202352793865001,0.5443525172957919,-0.7182027951378621,-6.659428473990024,0.07980031057087357,0.0850501720816095,0.1648504826524831
8.8,0.8223578182638278,0.5510263292219992,-0.7122243082165758,-6.711739362436829,0.0791360342462862,0.08474418386915188,0.16388021811543807
8.9,0.8244420274463585,0.5577358956623707,-0.706349201341015,-6.76373320968613,0.0784832445934461,0.08444111372891547,0.16292435832236157
9.0,0.8264888527213666,0.5644812588334158,-0.700574707271107,-6.815414105664383,0.07784163414123411,0.08414091488474547,0.16198254902597958
9.1,0.828499209838249,0.5712624593701077,-0.6948981599402846,-6.86678605489019,0.07721090666003162,0.08384354157375079,0.1610544482337824
9.2,0.8304739857002275,0.5780795364304036,-0.6893169897275403,-6.917852979264523,0.07659077663639337,0.08354894902493386,0.16013972566132723
9.3,0.8324140394574884,0.5849325276488324,-0.6838287191143572,-6.96861871966143,0.07598096879048413,0.08325709342486774,0.15923806221535186
9.4,0.83432020363007,0.5918214693722089,-0.6784309583552115,-7.019087039565751,0.0753812175950235,0.08296793190976065,0.15834914950478415
9.5,0.83619328509919,0.5987463966118415,-0.6731214016096417,-7.069261626516324,0.07479126684551575,0.08268142253235466,0.1574726893778704
9.6,0.8380340660911902,0.6057073431291549,-0.6678978231777974,-7.119146094491599,0.07421086924197749,0.08239752424180093,0.15660839348377842
9.7,0.8398433051161984,0.6127043415200831,-0.6627580739398377,-7.168743986212625,0.07363978599331529,0.08211619686383305,0.15575598285714834
9.8,0.8416217378284375,0.6197374231565045,-0.6577000780872997,-7.218058774376677,0.07307778645414441,0.08183740107003035,0.15491518752417477
9.9,0.8433700779172776,0.6268066183990466,-0.6527218298309896,-7.267093864758458,0.07252464775899885,0.08156109836990412,0.15408574612890297
10.0,0.8450890178902639,0.6339119565371547,-0.6478213904745772,-7.315852597320784,0.07198015449717525,0.08128725108134205,0.1532674055785173
