# Rényi α=0.8 (n=-0.19999999999999996) RS entropy density for the noiseless sign channel (q₀=0 ansatz)
# See §4.3 of notes/notes_hiddenmanifold.typ (eq:sign-renyi-main)
gamma,q1,q1hat,Phi_n,S_prior,s_out,s_prior,s
0.05,0.03151530770550855,0.03274725029960196,0.13700146241261676,4.075533380205583e-5,0.685007312063084,0.004075533380205584,0.6890828454432896
0.1,0.062388204433930686,0.0673802296305778,0.135360763047763,0.00016385780271828496,0.6768038152388152,0.00819289013591425,0.6849967053747295
0.15,0.09260314875784062,0.1039794008597342,0.13370880640146135,0.0003703961435774991,0.6685440320073069,0.012346538119249973,0.680890570126557
0.2,0.12214607853675881,0.14262592998642631,0.1320471240110594,0.0006612278213307676,0.6602356200552971,0.016530695533269194,0.6767663155885664
0.25,0.1510045247623299,0.18340146931613777,0.1303773012455182,0.0010369684982786589,0.6518865062275911,0.02073936996557318,0.6726258761931643
0.3,0.1791677051347248,0.2263879342944109,0.1287009674610483,0.0014979839768554,0.6435048373052417,0.024966399614256674,0.6684712369194983
0.35,0.20662659736235758,0.27166727695725146,0.12701978572844502,0.002044384742242302,0.6350989286422253,0.029205496317747184,0.6643044249599724
0.4,0.23337399104705234,0.31932125689889423,0.1253354423205948,0.002676023162466276,0.6266772116029741,0.03345028953082846,0.6601275011338026
0.45,0.25940451929687913,0.36943121362032294,0.12364963603906469,0.003392493384426855,0.6182481801953236,0.03769437093807617,0.6559425511333997
0.5,0.2847146696094188,0.42207784111260105,0.12196406757650162,0.004193133880760341,0.6098203378825082,0.04193133880760342,0.6517516766901117
0.55,0.30930277556271446,0.4773409683223805,0.12028042900682125,0.0050770325882850825,0.6014021450341064,0.046154841711682576,0.647556986745789
0.6,0.3331689899614466,0.5352993471057492,0.11860039356325235,0.006043034507916489,0.5930019678162619,0.05035862089930409,0.643360588715566
0.65,0.3563152410198734,0.5960304504838605,0.11692560581295702,0.007089751611825623,0.5846280290647853,0.05453655086019711,0.6391645799249824
0.7,0.3787451726685853,0.6596102822205643,0.11525767237577858,0.008215574839090932,0.576288361878893,0.058682677422078104,0.6349710393009711
0.75,0.40046407119208494,0.7261132008407377,0.11359815325547554,0.009418687967087613,0.5679907662773778,0.06279125311391744,0.6307820193912952
0.8,0.42147877958321867,0.7956117586633746,0.1119485539040885,0.010697083081661972,0.5597427695204427,0.06685676926038733,0.62659953878083
0.85,0.4417976016697719,0.8681765575543443,0.11031031808291561,0.012048577373707972,0.5515515904145781,0.07087398455122339,0.6224255749658015
0.9,0.461430197846906,0.9438761220932241,0.10868482158540403,0.013470830966115482,0.5434241079270202,0.0748379498117527,0.618262057738773
0.95,0.48038747437556073,1.0227767908890673,0.10707336685993439,0.01496136547742418,0.535366834299672,0.07874402882854835,0.6141108631282204
1.0,0.49868146814110204,1.104942626425668,0.10547717855414387,0.016517583031262266,0.5273858927707195,0.08258791515631135,0.6099738079270308
1.1,0.5333326986973002,1.2793142533614976,0.10233509057282227,0.019816193180016192,0.5116754528641114,0.09007360536370998,0.6017490582278214
1.2,0.5654982976764598,1.4674556948818027,0.09926668765164198,0.023344212280323323,0.49633343825821,0.09726755116801387,0.5936009894262239
1.3,0.5953032311937521,1.6697924440036789,0.0962787221044066,0.027078474444833342,0.4813936105220331,0.10414797863397442,0.5855415891560075
1.4,0.622879477871992,1.8867108862039088,0.0933765773099765,0.0309956358895854,0.46688288654988264,0.11069869960566217,0.5775815861555448
1.5,0.6483628059603666,2.118559235603767,0.09056431920954525,0.03507264751918068,0.4528215960477263,0.11690882506393564,0.5697304211116619
1.6,0.6718899564919583,2.365649150544213,0.08784478111909602,0.0392871502045023,0.4392239055954802,0.1227723443890697,0.5619962499845499
1.7,0.6935962737211692,2.6282578511414583,0.08521967230170881,0.043617788529889956,0.42609836150854413,0.1282876133232058,0.5543859748317499
1.8,0.7136137901971933,2.906630573897564,0.08268970123786956,0.048044444603979095,0.4134485061893479,0.1334567905666086,0.5469052967559566
1.9,0.7320697473388436,3.200983218362146,0.08025470563204413,0.05254839783377899,0.40127352816022077,0.13828525745731315,0.5395587856175339
2.0,0.7490855138054221,3.5115050629158393,0.077913782634437,0.057112419324129804,0.3895689131721851,0.14278104831032454,0.5323499614825097
2.1,0.7647758530808513,3.8383614531792754,0.07566541426521017,0.06172081103696116,0.378327071326051,0.14695431199276468,0.5252813833188157
2.2,0.7792484866806386,4.181696386616387,0.07350758451442466,0.06635940015865352,0.36753792257212337,0.15081681854239437,0.5183547411145177
2.3,0.7926039000366714,4.541634956356428,0.07143788576904472,0.07101549894648097,0.3571894288452237,0.15438151944887174,0.5115709482940954
2.4,0.8049353396375072,4.918285600115858,0.069453613524672,0.07567783889816813,0.34726806762336004,0.15766216437118366,0.5049302319945437
2.5,0.816328957333045,5.3117421671848835,0.0675518488486207,0.08033648757485341,0.33775924424310355,0.16067297514970685,0.4984322193928104
2.6,0.8268640614011773,5.72208576615837,0.06572952904388638,0.0849827542760797,0.32864764521943196,0.1634283736078456,0.4920760188272776
2.7,0.8366134426873629,6.1493864322493135,0.06398350701311463,0.08960909032078951,0.31991753506557324,0.16594275985331391,0.48586029491888716
2.8,0.8456437480099139,6.593704586730315,0.062310600445673214,0.09420898762444335,0.3115530022283661,0.1682303350436489,0.47978333727201505
2.9,0.8540158805578723,7.055092334497669,0.06070763175529912,0.09877687903331886,0.30353815877649565,0.1703049638505498,0.4738431226270454
3.0,0.8617854104052389,7.5335945932564785,0.05917145998843126,0.10330804236795985,0.29585729994215637,0.17218007061326646,0.4680373705554228
3.1,0.8690029831408115,8.029250076578812,0.05769900577175476,0.10779850973325045,0.28849502885877387,0.17386856408588786,0.4623635929446617
3.2,0.8757147179583615,8.542092159312059,0.056287270302629186,0.11224498311249359,0.281436351513146,0.17538278611327127,0.45681913762641724
3.3,0.8819625885859956,9.072149602807691,0.054933349440849696,0.11664475637867248,0.27466674720424855,0.17673447936162504,0.45140122656587356
3.4,0.8877847838357713,9.61944720406678,0.0536344436010173,0.12099564432040857,0.26817221800508656,0.17793477105942443,0.44610698906451096
3.5,0.8932160449188381,10.184006344199698,0.05238786430219908,0.12529591824939684,0.26193932151099547,0.1789941689277098,0.4409334904387053
3.6,0.8982879786929949,10.765845463270718,0.05119103797145161,0.12954424807649625,0.2559551898572581,0.1799225667729115,0.4358777566301696
3.7,0.903029346637432,11.364980468214647,0.0500415075603323,0.13373965046446745,0.25020753780166155,0.1807292573844155,0.4309367951860771
3.8,0.9074663300530222,11.981425083624444,0.04893693243566263,0.13788144264047572,0.24468466217831322,0.18142295084273127,0.4261076130210445
3.9,0.9116227724148891,12.615191152827492,0.047875086932405046,0.14196920141110353,0.2393754346620253,0.182011796680902,0.4213872313429273
4.0,0.9155204001026818,13.26628889763839,0.04685385788635584,0.14600272692828653,0.23426928943177927,0.1825034086603582,0.41677269809213746
4.1,0.9191790228716319,13.934727139868336,0.045871241414310836,0.14998201073464823,0.22935620707155424,0.18290489113981498,0.41226109821136925
4.2,0.9226167155513149,14.620513493515892,0.04492533914919007,0.15390720767905497,0.2246266957459504,0.18322286628458928,0.4078495620305397
4.3,0.9258499824304383,15.32365452863871,0.04401435410809437,0.15777861127340936,0.22007177054047192,0.1834635014807086,0.40353527202118056
4.4,0.9288939057946464,16.044155912939218,0.04313658632751818,0.16159663212721212,0.21568293163759092,0.1836325365081956,0.39931546814578656
4.5,0.9317622800111207,16.782022533941596,0.042290428375584076,0.16536177911102246,0.2114521418779204,0.18373531012335834,0.39518745200127875
4.6,0.9344677325146162,17.537258614108232,0.04147436081665833,0.16907464298037314,0.2073718040832917,0.18377678584823173,0.39114858993152346
4.7,0.937021832714707,18.309867758756766,0.04068694776011434,0.17273588187389533,0.20343473880057175,0.1837615764615908,0.3871963152621626
4.8,0.9394351905299696,19.099853097859434,0.039926832373315166,0.1763462092078504,0.19963416186657587,0.18369396792484421,0.38332812979142006
4.9,0.941717544843309,19.907217311496506,0.03919273262490956,0.1799063826980097,0.19596366312454785,0.18357794152858137,0.37954160465312925
5.0,0.9438778434131969,20.731962697967198,0.038483437113207605,0.18341719508682708,0.19241718556603807,0.1834171950868271,0.3758343806528652
5.1,0.9459243148899732,21.574091224714273,0.03779780106585377,0.1868794660918105,0.1889890053292689,0.18321516283510836,0.3722041681643773
5.2,0.9478645337641467,22.433604571754152,0.037134742512910754,0.1902940354609482,0.1856737125645538,0.18297503409706561,0.3686487466616194
5.3,0.9497054789669718,23.31050416972571,0.036493238639110845,0.193661757000906,0.18246619319555427,0.18269977075557173,0.365165963951126
5.4,0.9514535867669934,24.204791232278968,0.03587232231895053,0.19698349345087918,0.1793616115947527,0.1823921235656289,0.36175373516038156
5.5,0.9531147985470393,25.116466784922643,0.03527107883327483,0.20026011209979638,0.1763553941663742,0.1820546473634513,0.3584100415298255
5.6,0.9546946039814361,26.045531689913986,0.03468864276554298,0.2034924810480282,0.17344321382771494,0.1816897152214538,0.3551329290491687
5.7,0.9561980800807919,26.991986666801033,0.03412419507388889,0.20668146602775372,0.17062097536944448,0.1812995316032928,0.35192050697273725
5.8,0.9576299265671918,27.95583233836834,0.033576960316893015,0.20982792780422588,0.16788480158446512,0.18088614465881545,0.34877094624328053
5.9,0.9589944977245648,28.937069143899926,0.03304620411542943,0.2129327195810415,0.1652310205771472,0.18045145727206913,0.34568247784921635
6.0,0.9602958316276158,29.93569750514507,0.03253123062639649,0.21599668560524193,0.1626561531319825,0.17999723800436832,0.34265339113635085
6.1,0.9615376762988005,30.951717739333276,0.03203138030836498,0.2190206592709798,0.16015690154182494,0.17952513054998348,0.3396820320918084
6.2,0.9627235136260635,31.9851300938128,0.031546027757119094,0.2220054619083975,0.1577301387855955,0.17903666282935288,0.3367668016149484
6.3,0.9638565810600597,33.0359347562507,0.031074579688148002,0.22495190173709703,0.15537289844074004,0.17853325534690243,0.33390615378764243
6.4,0.9649398913414721,34.10413186240538,0.030616473045672284,0.22786077302490954,0.15308236522836144,0.1780162289257106,0.33109859415407206
6.5,0.9659762504549337,35.18972150403701,0.03017117322975976,0.23073285543055555,0.15085586614879884,0.17748681186965815,0.32834267801845696
6.6,0.9669682739805192,36.29270373471908,0.029738172435510087,0.23356891349874953,0.14869086217755045,0.17694614658996183,0.3256370087675123
6.7,0.9679184020003444,37.41307857556714,0.02931698809665196,0.23636969629141547,0.14658494048325982,0.17639529573986235,0.32298023622312216
6.8,0.9688289127358733,38.55084606785017,0.02890716141059932,0.23913593724816032,0.14453580705299662,0.1758352479765885,0.32037105502958513
6.9,0.9697019348171851,39.70600608734651,0.02850825604003947,0.24186835357247638,0.14254128020019738,0.17526692287860612,0.31780820307880353
7.0,0.9705394588593581,40.878558630846356,0.028119856731125353,0.24456764684850985,0.1405992836556268,0.1746911763203642,0.31529045997599103
7.1,0.9713433476930291,42.06850363286606,0.027741568182050372,0.24723450258527668,0.1387078409102519,0.17410880463751882,0.3128166455477707
7.2,0.972115345906612,43.275841014053924,0.027373013902238515,0.2498695903911809,0.1368650695111926,0.17352054888276455,0.3103856183939572
7.3,0.9728570885554981,44.50057068450997,0.02701383515847969,0.2524735640894657,0.1350691757923985,0.1729270986914149,0.3079962744838134
7.4,0.9735701091475191,45.742692545092936,0.026663689987382583,0.2550470618732106,0.13331844993691294,0.17232909586027745,0.3056475457971904
7.5,0.9742558469731413,47.00220649064335,0.026322252268642127,0.25759070650106497,0.13161126134321066,0.17172713766737668,0.30333839901058735
7.6,0.9749156538371079,48.279112410454886,0.02598921085642696,0.26010510551758026,0.12994605428213482,0.17112177994577654,0.3010678342279114
7.7,0.9755508002478843,49.57341019060732,0.025664268763784255,0.262590851502292,0.1283213438189213,0.1705135399365533,0.2988348837554746
7.8,0.9761624811114729,50.88509971487966,0.02534714239744257,0.2650485223360401,0.1267357119872129,0.16990289893335908,0.296638610920572
7.9,0.976751821011395,52.21418095170765,0.025037560819630048,0.2674786816388341,0.12518780409815028,0.16929030483470517,0.2944781089328554
8.0,0.9773198788907308,53.560653614399556,0.024735265151824157,0.26988187844549855,0.12367632575912081,0.16867617402843663,0.29235249978755745
8.1,0.9778676527327832,54.92451767006245,0.02444000782230633,0.2722586484388696,0.12220003911153168,0.16806089409806768,0.29026093320959934
8.2,0.9783960835220272,56.30577300390198,0.024151552049256415,0.27460951364150477,0.1207577602462821,0.1674448253911615,0.2882025856374436
8.3,0.9789060590800642,57.70441950346515,0.023869671260513894,0.2769349828854083,0.1193483563025695,0.16682830294301706,0.28617665924558655
8.4,0.9793984175762154,59.120457059424815,0.023594148566410324,0.2792355521297675,0.11797074283205164,0.16621163817248066,0.2841823810045323
8.5,0.9798739507745389,60.55388556537558,0.023324776263877408,0.28151170477797566,0.11662388131938707,0.16559512045763278,0.28221900177701986
8.6,0.9803334070401124,62.00470491925503,0.023061355369314973,0.2837639119967401,0.1153067768465749,0.16497901860275593,0.28028579544933085
8.7,0.9807774941233686,63.4729150230597,0.022803695178983625,0.28599263303068434,0.11401847589491815,0.16436358220154276,0.2783820580964609
8.8,0.9812068817415891,64.95851578369428,0.022551612854628814,0.2881983155159836,0.1127580642731441,0.1637490429068089,0.27650710717995297
8.9,0.9816222039733284,66.46150711260783,0.02230493303313307,0.2903813957885531,0.11152466516566538,0.1631356156115467,0.2746602807772121
9.0,0.9820240614817126,67.98188892730093,0.02206348745815153,0.2925422991906865,0.11031743729075767,0.16252349955038142,0.2728409368411391
9.1,0.9824130236157032,69.5196612982994,0.021827114610668844,0.2946814405727573,0.10913557305334425,0.16191287943558097,0.27104845248892523
9.2,0.9827896301821862,71.0748238596623,0.021595659471185864,0.2967992237718436,0.10797829735592934,0.16130392596295853,0.26928222331888785
9.3,0.9831543934545453,72.64737669109101,0.021368973074812378,0.29889604312721646,0.10684486537406192,0.16069679738022394,0.26754166275428587
9.4,0.9835077996848831,74.23731973222955,0.021146912309868343,0.3009722829436595,0.10573456154934174,0.16009163986364872,0.26582620141299046
9.5,0.9838503106899013,75.84465292951998,0.020929339618937587,0.3030283179739724,0.10464669809468796,0.15948858840735394,0.2641352865020419
9.6,0.9841823652932966,77.46937623491237,0.02071612273815325,0.3050645136869852,0.10358061369076628,0.15888776754530481,0.2624683812360711
9.7,0.9845043806715075,79.11148960741706,0.020507134450287002,0.307081226532685,0.10253567225143503,0.15828929202715725,0.26082496427859225
9.8,0.9848167536087771,80.7709930109884,0.02030225235165493,0.30907880419613554,0.10151126175827467,0.15769326744700796,0.25920452920528264
9.9,0.9851198616705363,82.44788642050418,0.02010135863054162,0.3110575858544821,0.10050679315270812,0.15709979083559708,0.2576065839883052
10.0,0.9854140642966518,84.14216981102823,0.01990433985943386,0.31301790240734606,0.09952169929716932,0.15650895120367306,0.2560306505008424
